time (s)	magX	magY	magZ
3184.664873	-128.988892	-392.928131	442.197571
3184.667755	-130.800705	-393.980133	457.977783
3184.671085	-133.839859	-395.090576	470.134399
3184.674461	-135.710114	-397.253052	485.505524
3184.677755	-138.164825	-398.597321	500.526001
3184.681087	-140.736420	-398.889526	515.897156
3184.684419	-143.775574	-400.584473	530.800720
3184.687753	-146.347168	-400.642914	544.769165
3184.691078	-149.327881	-399.766205	562.185852
3184.694414	-152.600815	-399.298645	575.862061
3184.697745	-155.523087	-397.545288	591.759216
3184.701081	-158.620697	-395.967255	607.422546
3184.704450	-161.835175	-393.687897	622.910583
3184.707749	-165.283463	-390.882507	638.515503
3184.711078	-168.264175	-389.246063	652.659302
3184.714411	-170.952652	-384.745758	668.907043
3184.717743	-175.043839	-380.771484	681.998840
3184.721073	-177.615433	-376.095856	697.954407
3184.724415	-180.829926	-372.472229	712.916443
3184.727745	-184.278198	-366.686157	725.599060
3184.731076	-185.739334	-361.192261	740.561035
3184.734416	-189.187607	-353.945068	755.464661
3184.737745	-190.648743	-347.223846	769.199280
3184.742010	-194.798355	-331.443604	795.967285
3184.745255	-197.077728	-322.910583	808.299255
3184.748636	-198.772644	-313.968445	821.332520
3184.751926	-199.240204	-303.623596	832.086487
3184.755289	-200.467560	-293.804779	845.762756
3184.758164	-200.467560	-282.817078	856.692017
3184.761530	-201.519592	-271.770874	866.569214
3184.764888	-201.694916	-259.322021	877.907654
3184.768194	-202.045578	-247.399185	887.609558
3184.771079	-202.630035	-235.067200	895.032104
3184.774410	-201.402695	-221.624786	902.396301
3184.777747	-200.409119	-207.890137	909.234314
3184.781077	-200.116898	-191.934540	916.423157
3184.784408	-199.181763	-176.972534	921.332520
3184.787737	-199.181763	-161.659851	925.540649
3184.791117	-197.253067	-145.938049	928.638245
3184.794404	-196.493286	-130.274689	933.138550
3184.797740	-195.441254	-113.150200	935.943909
3184.801072	-194.330795	-96.668610	937.171265
3184.804405	-193.278793	-79.544128	934.015198
3184.807736	-191.642319	-62.828754	933.430786
3184.811065	-190.531845	-45.938049	933.547607
3184.814403	-189.830505	-28.462887	930.508545
3184.817733	-188.310928	-11.513735	926.943298
3184.821066	-187.434250	6.370543	922.150818
3184.824407	-185.739334	22.969025	916.773804
3184.827739	-185.037994	39.333721	910.987732
3184.831069	-183.401520	55.756866	902.045654
3184.834421	-181.765045	72.063118	894.622986
3184.837734	-180.596130	87.843361	885.914734
3184.841100	-179.193451	103.097603	877.557007
3184.845678	-175.569839	132.963181	856.692017
3184.848591	-174.751602	147.632965	847.223877
3184.851915	-172.472244	162.010513	836.060791
3184.855277	-171.011108	174.810059	823.436523
3184.858624	-169.023972	187.492691	811.864380
3184.861514	-167.212158	199.707764	799.123352
3184.864857	-165.634125	211.747528	787.258911
3184.868182	-162.770309	222.969025	775.160767
3184.871496	-160.900055	234.015198	762.536499
3184.874398	-158.211578	244.067795	749.795410
3184.877759	-155.230850	253.828171	736.762146
3184.881065	-152.483932	262.945648	723.202820
3184.884396	-149.094086	272.238434	710.403259
3184.887733	-146.405609	279.953247	696.668640
3184.891064	-143.249557	288.369385	684.979553
3184.894390	-140.035065	294.973694	671.946228
3184.897728	-136.879013	302.746948	657.334900
3184.901066	-133.722977	308.942139	644.243164
3184.904393	-130.859146	315.663361	631.151367
3184.907722	-126.943298	320.923462	618.001160
3184.911062	-122.969017	325.599060	603.974304
3184.914397	-119.812981	330.450043	591.291687
3184.917726	-116.715370	334.774994	577.323181
3184.921073	-112.974869	338.281708	562.887207
3184.924390	-109.526596	341.320862	550.438354
3184.927728	-106.896553	344.886047	537.638794
3184.931057	-103.156052	347.340729	524.137939
3184.934393	-100.642899	349.094116	512.098145
3184.937733	-97.486847	350.672119	498.480408
3184.941052	-95.441261	352.133240	486.615997
3184.944389	-92.986557	352.776154	473.173584
3184.949024	-88.310928	352.776154	448.918762
3184.951953	-86.382233	352.951477	437.755676
3184.955255	-84.336647	352.659271	426.417297
3184.958593	-82.641731	351.899475	413.676208
3184.961510	-81.355927	349.970764	402.396240
3184.964879	-79.368790	349.327881	392.518982
3184.968165	-77.907654	347.223846	381.765045
3184.971493	-76.563416	346.288727	371.946228
3184.974821	-75.043831	344.067780	361.835205
3184.977715	-74.810051	340.911743	352.133240
3184.981047	-72.530678	339.392151	342.957336
3184.984392	-71.829338	337.931030	333.839874
3184.987722	-70.368210	334.891876	325.949738
3184.991052	-69.608414	332.203400	316.189362
3184.994381	-69.140854	329.982483	308.240784
3184.997720	-68.147285	327.177094	300.350677
3185.001055	-66.627708	324.722382	292.869659
3185.004385	-65.634132	321.566345	285.914673
3185.007743	-64.932785	318.001160	277.381653
3185.011049	-63.354759	315.195801	271.712433
3185.014382	-62.185852	312.098206	262.361206
3185.017716	-61.776741	308.942139	256.633545
3185.021052	-59.964931	306.487427	249.444763
3185.024377	-58.971363	302.513153	243.307999
3185.027712	-57.101112	299.590881	237.814148
3185.031080	-56.399769	296.493256	231.677383
3185.034387	-55.347752	293.161896	226.241974
3185.037723	-53.828167	290.531860	220.280533
3185.041046	-52.367039	286.732910	215.078903
3185.044384	-51.665695	283.985962	209.526581
3185.047715	-50.204556	280.713043	203.565170
3185.051915	-47.983635	274.225586	194.973694
3185.055253	-46.990063	272.121582	189.421387
3185.058591	-46.230274	268.907074	185.680893
3185.061982	-45.002922	265.458801	180.362350
3185.064825	-43.892460	262.711853	176.271194
3185.068184	-42.840446	260.315613	171.128006
3185.071544	-42.139099	255.873749	167.504379
3185.074833	-41.905319	253.302170	163.822327
3185.078135	-40.619518	250.438339	160.140259
3185.081041	-39.859730	247.866745	155.581528
3185.084370	-39.509056	244.710678	152.659256
3185.087707	-38.807713	242.022202	148.451202
3185.091046	-38.749268	239.275284	145.412033
3185.094402	-38.515488	236.236115	142.372879
3185.097709	-37.463470	234.599640	138.690826
3185.101044	-38.223259	231.560486	136.586792
3185.104376	-37.521915	228.579788	133.372299
3185.107706	-37.463470	226.534195	130.040909
3185.111035	-37.697254	223.553467	128.112213
3185.114370	-36.528347	221.332550	125.540611
3185.117705	-36.995907	218.819397	122.618355
3185.121041	-36.820572	216.481598	120.455872
3185.124369	-36.703682	214.962006	118.644073
3185.127705	-36.937462	211.922867	114.962006
3185.131034	-36.528347	209.468155	114.085327
3185.134385	-36.411457	207.890137	111.396851
3185.137741	-35.885448	206.253647	110.052597
3185.141036	-35.768555	203.097610	108.357681
3185.144381	-35.476330	201.636475	106.428993
3185.147705	-35.710110	199.473984	103.565170
3185.151038	-35.184105	197.545288	101.811806
3185.155221	-34.891876	194.798355	99.181763
3185.158578	-34.599651	192.752777	97.779076
3185.161928	-33.956753	190.414963	95.441261
3185.165299	-34.132088	189.129166	94.681473
3185.168159	-33.313854	187.901810	92.869667
3185.171483	-33.080070	185.797775	91.992989
3185.174822	-32.904736	184.395081	90.765633
3185.178133	-32.554062	182.758621	89.888954
3185.181034	-31.969610	181.589706	87.784920
3185.184369	-31.852718	179.135010	86.557564
3185.187720	-31.443600	178.609009	85.505554
3185.191035	-31.268263	177.323196	83.869080
3185.194363	-30.683809	175.452942	82.524841
3185.197701	-30.157801	174.050262	81.063705
3185.201028	-30.742254	173.056702	80.420807
3185.204370	-29.631794	172.296906	78.784332
3185.207699	-29.398012	170.368210	79.251900
3185.211028	-29.339567	169.549973	78.024551
3185.214361	-28.930450	167.913498	76.680305
3185.217691	-28.696669	167.095261	76.212738
3185.221025	-28.813559	165.809464	75.628288
3185.224357	-28.287550	164.640564	75.686737
3185.227694	-28.521332	163.763885	73.933372
3185.231030	-27.936878	162.945633	72.647568
3185.234359	-28.638224	162.361191	71.537109
3185.237694	-28.638224	161.133835	71.537109
3185.241023	-28.521332	160.607834	70.543541
3185.244360	-27.469316	159.614258	69.549973
3185.247696	-27.761543	158.620697	69.199303
3185.251022	-27.878433	157.685562	69.608414
3185.255656	-27.819988	156.984222	68.381065
3185.258571	-28.170660	155.873764	67.855057
3185.261916	-28.287550	155.464630	67.738167
3185.265300	-28.404442	155.873764	68.556396
3185.268191	-28.170660	155.113968	67.679718
3185.271559	-28.170660	154.178848	66.569260
3185.274805	-28.229105	153.535934	67.679718
3185.278119	-28.521332	153.243713	67.153709
3185.281450	-27.878433	152.483932	66.043251
3185.284358	-27.819988	153.360611	66.335472
3185.287696	-27.819988	152.483932	65.809471
3185.291026	-27.703098	152.191696	65.867912
3185.294353	-27.644651	151.256577	65.049675
3185.297691	-27.410872	151.256577	64.640564
3185.301025	-27.586206	151.198120	64.640564
3185.304355	-26.943308	150.672119	64.815895
3185.307681	-26.943308	151.022797	64.991234
3185.311022	-27.060200	151.081238	64.406784
3185.314351	-26.475746	150.438339	64.114555
3185.317699	-26.417299	150.555237	64.582115
3185.321018	-25.482174	150.321442	64.348335
3185.324350	-25.423729	150.204559	63.413208
3185.327714	-25.131502	149.853882	63.880772
3185.331025	-25.073057	150.730560	63.471649
3185.334356	-25.073057	150.321442	63.530098
3185.337682	-24.196377	150.555237	63.822330
3185.341018	-24.313267	150.321442	63.646992
3185.344350	-24.079485	149.853882	63.471649
3185.347677	-23.436586	151.198120	63.997662
3185.351021	-23.202805	150.905914	63.646992
3185.354351	-22.910578	151.256577	63.588543
3185.358555	-22.910578	151.315018	63.530098
3185.361927	-22.559906	151.724136	63.413208
3185.365288	-22.559906	151.841034	64.231445
3185.368598	-22.033899	152.951492	64.991234
3185.371460	-21.858562	153.302155	64.289894
3185.374786	-21.917007	153.419052	65.049675
3185.378098	-21.975452	153.652832	65.108124
3185.381439	-21.917007	153.828171	66.510811
3185.384777	-21.975452	155.055527	66.452370
3185.387684	-21.391001	155.815308	66.452370
3185.391016	-21.157219	156.516663	67.036819
3185.394350	-21.800117	157.042664	67.153709
3185.397684	-21.858562	157.919342	67.445938
3185.401011	-21.566336	158.094681	68.556396
3185.404353	-21.800117	159.088257	68.497955
3185.407680	-21.391001	159.555817	69.433083
3185.411012	-21.800117	160.490936	69.783752
3185.414341	-21.449446	161.776733	71.011101
3185.417675	-21.157219	162.419647	71.478668
3185.421007	-20.748100	163.179428	72.355347
3185.424339	-21.098774	164.465225	73.348923
3185.427672	-21.215664	165.108124	74.050262
3185.431011	-20.280537	166.218597	75.803627
3185.434334	-20.338982	167.504379	76.212738
3185.437675	-20.046755	168.205719	75.628288
3185.441003	-19.812975	169.491531	77.966103
3185.444339	-19.579193	169.842194	78.258331
3185.447699	-20.105202	171.420212	78.609001
3185.451007	-18.936295	172.530685	78.784332
3185.454340	-18.585623	174.225601	79.485680
3185.457669	-17.475161	175.043839	81.063705
3185.461885	-17.592052	177.556976	82.933960
3185.465233	-16.598480	179.427231	83.869080
3185.468613	-16.481590	181.239044	84.511986
3185.471949	-15.371127	181.940384	85.330215
3185.474820	-14.786674	184.336655	86.732903
3185.478096	-15.078900	185.037994	88.953827
3185.481431	-14.552893	187.083572	90.824081
3185.484764	-13.383986	188.895386	91.350090
3185.487668	-13.325541	189.830505	93.045006
3185.491011	-13.033314	191.934540	93.804794
3185.494330	-12.331969	193.045013	95.207481
3185.497668	-11.455289	194.681473	97.194626
3185.501004	-10.870836	197.194626	98.129745
3185.504337	-10.695500	199.064880	99.590881
3185.507669	-10.344828	201.168915	102.220932
3185.511003	-9.818819	202.630035	104.383400
3185.514333	-9.234365	205.084747	106.662773
3185.517665	-9.175920	206.721207	108.123901
3185.520994	-8.825249	209.468155	110.227943
3185.524336	-8.357686	210.637039	112.331978
3185.527669	-8.299240	213.676208	114.143776
3185.531002	-7.597896	215.780228	116.247810
3185.534354	-7.247224	218.001175	118.527176
3185.537669	-6.721216	220.981888	122.501457
3185.540997	-6.078317	223.027466	124.371704
3185.544337	-6.428989	225.073059	127.118645
3185.547672	-5.610754	227.644653	129.339569
3185.550995	-5.376973	230.917603	132.612503
3185.554331	-4.734074	233.430740	135.827011
3185.557665	-4.266511	236.060791	139.567505
3185.562300	-3.039158	240.385742	145.178253
3185.565206	-2.513150	243.775558	148.217422
3185.568616	-1.870251	246.405609	150.789017
3185.571967	-0.818235	248.801880	154.763290
3185.575258	0.935126	252.834610	157.802444
3185.578124	1.578025	255.406189	161.952072
3185.581415	3.097604	257.276428	165.867920
3185.584756	3.448276	261.133850	169.959091
3185.588085	4.675628	264.173004	174.108704
3185.590998	5.786090	267.036804	177.440094
3185.594326	6.545880	269.725311	182.875519
3185.597657	7.948568	273.115143	186.031555
3185.600987	9.409702	275.978973	191.466980
3185.604328	10.812390	279.427246	195.382828
3185.607656	12.273524	282.407959	201.461121
3185.610990	12.974869	285.037994	206.662781
3185.614338	14.669784	288.369385	211.864395
3185.617655	16.364700	291.700775	216.364700
3185.620990	17.825832	294.447693	222.092346
3185.624321	18.994740	298.246643	227.586197
3185.627708	20.338982	301.285797	233.606079
3185.630999	22.092344	304.967865	239.742859
3185.634321	22.793688	307.422577	245.938034
3185.637654	24.547049	311.572174	252.425476
3185.640990	26.066628	314.552917	260.081818
3185.644319	28.053770	317.358276	266.686157
3185.647656	29.105785	319.579193	273.173584
3185.650987	30.274693	323.027466	280.654602
3185.654320	31.677380	326.943298	289.246063
3185.657654	33.255405	329.047333	298.012848
3185.660987	34.424313	332.963196	307.013428
3185.665201	37.171246	338.281708	323.787262
3185.668530	39.041496	340.151947	333.839874
3185.671908	39.742840	343.834015	342.606659
3185.675253	41.963764	345.061371	351.198120
3185.678130	42.372883	348.275848	362.419617
3185.681408	43.950905	349.912323	372.939789
3185.684741	45.528931	351.724152	382.524841
3185.688085	47.048508	353.243713	392.051422
3185.691405	49.035652	354.938629	403.857361
3185.694318	50.613678	356.165985	414.143738
3185.697649	52.191700	356.867340	426.300415
3185.701019	54.003506	357.510223	437.405029
3185.704317	55.873756	359.438934	448.334320
3185.707654	58.094681	359.789581	460.490936
3185.710982	60.607834	359.438934	472.998230
3185.714312	62.127411	359.614258	485.856262
3185.717646	64.582115	358.737579	497.253082
3185.720980	67.036819	358.153137	509.935699
3185.724311	69.900642	356.633545	523.085937
3185.727642	72.881355	354.997101	535.885437
3185.730994	75.043831	353.360596	550.379883
3185.734311	76.972534	351.373444	561.075378
3185.737641	80.420807	348.626556	574.517822
3185.740984	83.167740	345.295135	587.609558
3185.744354	86.206894	340.736420	600.818237
3185.747641	89.246056	337.112793	613.968445
3185.750995	91.817650	332.670959	628.813538
3185.754314	94.155464	328.053772	642.723572
3185.757643	97.603737	322.033905	655.347717
3185.760972	99.824661	316.481598	670.601990
3185.764315	102.045586	310.286377	684.979553
3185.768525	106.954994	294.798370	714.085327
3185.771848	109.818817	286.265350	726.943298
3185.775244	111.572182	278.141418	741.613098
3185.778571	113.442436	268.907074	755.639954
3185.781457	115.429565	258.562256	767.796631
3185.784742	117.241379	248.217422	782.758606
3185.788067	119.053185	237.521912	798.188232
3185.791399	120.455872	226.066635	809.351257
3185.794745	121.332550	213.909988	820.631226
3185.797643	121.975456	201.110458	837.755676
3185.800969	122.443024	189.012283	849.678528
3185.804300	123.611923	175.511398	859.146667
3185.807638	124.079491	161.718292	870.251282
3185.810964	123.436584	147.808304	881.239014
3185.814303	124.254822	133.606079	890.765686
3185.817639	124.021042	118.585625	902.688477
3185.820970	123.962593	103.097603	909.877319
3185.824300	124.196373	87.609581	920.046692
3185.827641	123.378143	71.712448	925.891296
3185.831012	122.735237	55.581535	935.008789
3185.834307	122.326126	39.801285	939.801331
3185.837663	122.384575	23.670368	945.762756
3185.840964	121.741676	7.364114	949.795410
3185.844304	120.981888	-9.935710	955.055542
3185.847638	119.871429	-25.657511	957.919312
3185.850992	120.105209	-41.437756	961.776733
3185.854297	118.702522	-57.101112	961.016968
3185.857633	118.001160	-73.173584	960.315613
3185.860968	117.124489	-89.772064	961.601440
3185.864303	116.832260	-104.909409	960.783203
3185.867632	115.604912	-121.215668	956.224426
3185.871827	113.676216	-150.672119	947.106934
3185.875171	113.091751	-166.569260	943.424866
3185.878560	111.864410	-180.771484	938.398560
3185.881925	110.403275	-195.149048	933.430786
3185.884726	108.942139	-208.007004	924.138000
3185.888058	107.422554	-221.858566	915.078918
3185.891386	106.019867	-234.891861	908.357727
3185.894752	103.915833	-247.632950	899.707764
3185.897627	101.987144	-258.036224	889.538269
3185.900966	99.298653	-270.835754	876.037415
3185.904298	97.428406	-282.349518	863.588501
3185.907626	94.798363	-292.460571	852.600830
3185.910964	91.759201	-302.863800	840.619568
3185.914295	88.720047	-312.682648	827.352417
3185.917623	85.564003	-321.741669	815.137390
3185.920954	82.349503	-330.099365	800.233765
3185.924318	79.018112	-338.690826	786.382263
3185.927627	75.219170	-346.756287	771.595581
3185.930955	72.063118	-352.600800	756.575134
3185.934288	68.264175	-359.964935	741.028625
3185.937688	65.166565	-365.341888	726.943298
3185.940960	61.192287	-371.770874	710.695496
3185.944287	56.575100	-376.271179	694.915222
3185.947623	53.769726	-379.427246	681.297485
3185.950953	50.146114	-384.570435	665.458801
3185.954289	46.522503	-387.083588	650.146118
3185.957622	43.717125	-390.940979	635.184082
3185.960956	40.151958	-392.986572	618.644043
3185.964284	36.645237	-395.324371	604.091187
3185.967640	34.015198	-396.376404	587.784912
3185.972306	28.521332	-398.305084	558.971375
3185.975160	26.008183	-398.831085	544.593811
3185.978563	23.261251	-398.772644	528.930481
3185.981920	21.215664	-398.071320	516.423157
3185.985236	19.579193	-398.480408	501.110474
3185.988045	17.182934	-396.785492	487.784912
3185.991384	15.663354	-395.207489	473.758026
3185.994713	13.383986	-394.798370	459.789612
3185.998038	12.039742	-392.986572	447.165405
3186.000956	10.111046	-390.765656	434.073639
3186.004287	8.766803	-388.720032	421.800140
3186.007618	7.422560	-386.908234	408.825256
3186.010969	5.727644	-384.862671	398.421967
3186.014279	4.208066	-381.823486	385.563995
3186.017613	3.272940	-379.719482	374.108734
3186.020953	1.694915	-376.271179	363.471649
3186.024280	0.584454	-373.290466	350.672119
3186.027620	-1.519579	-369.900635	340.385742
3186.030948	-2.513150	-366.744598	330.450043
3186.034283	-3.857393	-363.705444	319.871429
3186.037635	-4.617183	-360.783173	309.643494
3186.040955	-6.019871	-355.873749	301.227356
3186.044278	-7.481005	-352.659271	291.291656
3186.047614	-8.708358	-349.327881	281.998840
3186.050944	-9.935710	-345.762695	273.524261
3186.054311	-11.396844	-341.963776	265.225006
3186.057617	-12.682642	-337.521912	257.042664
3186.060948	-13.909994	-334.365875	249.094101
3186.064274	-14.845119	-330.742249	240.970184
3186.067630	-16.247808	-328.579773	233.606079
3186.070942	-17.825832	-322.150787	226.475739
3186.075150	-19.871420	-315.078888	213.734650
3186.078484	-21.215664	-311.513733	207.364105
3186.081934	-22.501461	-307.773224	200.935120
3186.085240	-23.261251	-304.266510	194.739914
3186.088088	-24.254822	-300.935120	188.953827
3186.091381	-25.423729	-297.369965	183.693741
3186.094700	-26.592636	-292.869659	178.433670
3186.098074	-27.293980	-290.122711	173.758041
3186.101371	-27.995323	-285.914673	168.322617
3186.104274	-28.872004	-282.583282	163.997665
3186.107608	-28.988895	-278.901215	159.029800
3186.110952	-30.040911	-276.914093	156.633545
3186.114274	-30.683809	-273.524261	152.074814
3186.117609	-31.385153	-269.199310	147.165405
3186.120940	-31.268263	-266.277039	143.600235
3186.124276	-31.911165	-263.588562	139.859741
3186.127601	-32.670956	-260.900055	136.060791
3186.130944	-33.138515	-256.925781	133.606079
3186.134271	-32.904736	-254.471069	129.456467
3186.137607	-33.021626	-251.724152	126.884865
3186.140954	-33.255405	-247.749847	123.378143
3186.144320	-33.255405	-245.470474	120.222092
